# Final state angular momentum:   1
# Broadening parameter (in eV):    0.800
# Absorbing atom type (xiabs):   1
# Energy (eV)   sigma
  -10.00000000    0.06425129
   -9.86622074    0.06698769
   -9.73244147    0.06962426
   -9.59866221    0.07201315
   -9.46488294    0.07414852
   -9.33110368    0.07612311
   -9.19732441    0.07796629
   -9.06354515    0.07952617
   -8.92976589    0.08058195
   -8.79598662    0.08112746
   -8.66220736    0.08150092
   -8.52842809    0.08217812
   -8.39464883    0.08343484
   -8.26086957    0.08517781
   -8.12709030    0.08704870
   -7.99331104    0.08869379
   -7.85953177    0.08996496
   -7.72575251    0.09090224
   -7.59197324    0.09159735
   -7.45819398    0.09212634
   -7.32441472    0.09260003
   -7.19063545    0.09322282
   -7.05685619    0.09426717
   -6.92307692    0.09601123
   -6.78929766    0.09867722
   -6.65551839    0.10231451
   -6.52173913    0.10664570
   -6.38795987    0.11101891
   -6.25418060    0.11457120
   -6.12040134    0.11657659
   -5.98662207    0.11683714
   -5.85284281    0.11586171
   -5.71906355    0.11463573
   -5.58528428    0.11412075
   -5.45150502    0.11481732
   -5.31772575    0.11658805
   -5.18394649    0.11875819
   -5.05016722    0.12042478
   -4.91638796    0.12082186
   -4.78260870    0.11953180
   -4.64882943    0.11644162
   -4.51505017    0.11160787
   -4.38127090    0.10524970
   -4.24749164    0.09779214
   -4.11371237    0.08978008
   -3.97993311    0.08173909
   -3.84615385    0.07411276
   -3.71237458    0.06724019
   -3.57859532    0.06133420
   -3.44481605    0.05648807
   -3.31103679    0.05271067
   -3.17725753    0.04996237
   -3.04347826    0.04817350
   -2.90969900    0.04724022
   -2.77591973    0.04700894
   -2.64214047    0.04727740
   -2.50836120    0.04783082
   -2.37458194    0.04848581
   -2.24080268    0.04908811
   -2.10702341    0.04946581
   -1.97324415    0.04940581
   -1.83946488    0.04870356
   -1.70568562    0.04726376
   -1.57190635    0.04517545
   -1.43812709    0.04270244
   -1.30434783    0.04018933
   -1.17056856    0.03793200
   -1.03678930    0.03608037
   -0.90301003    0.03460536
   -0.76923077    0.03332360
   -0.63545151    0.03198026
   -0.50167224    0.03038078
   -0.36789298    0.02849719
   -0.23411371    0.02645857
   -0.10033445    0.02444680
    0.03344482    0.02260274
    0.16722408    0.02099681
    0.30100334    0.01964390
    0.43478261    0.01852820
    0.56856187    0.01762188
    0.70234114    0.01689542
    0.83612040    0.01632219
    0.96989967    0.01587995
    1.10367893    0.01555090
    1.23745819    0.01532120
    1.37123746    0.01518043
    1.50501672    0.01512098
    1.63879599    0.01513763
    1.77257525    0.01522724
    1.90635452    0.01538847
    2.04013378    0.01562169
    2.17391304    0.01592893
    2.30769231    0.01631389
    2.44147157    0.01678209
    2.57525084    0.01734110
    2.70903010    0.01800081
    2.84280936    0.01877395
    2.97658863    0.01967663
    3.11036789    0.02072917
    3.24414716    0.02195705
    3.37792642    0.02339213
    3.51170569    0.02507391
    3.64548495    0.02705074
    3.77926421    0.02938022
    3.91304348    0.03212768
    4.04682274    0.03536079
    4.18060201    0.03913810
    4.31438127    0.04349161
    4.44816054    0.04840891
    4.58193980    0.05382196
    4.71571906    0.05959442
    4.84949833    0.06548780
    4.98327759    0.07114018
    5.11705686    0.07616969
    5.25083612    0.08042205
    5.38461538    0.08414022
    5.51839465    0.08784664
    5.65217391    0.09206717
    5.78595318    0.09715748
    5.91973244    0.10327539
    6.05351171    0.11038866
    6.18729097    0.11824424
    6.32107023    0.12629232
    6.45484950    0.13368316
    6.58862876    0.13956742
    6.72240803    0.14367334
    6.85618729    0.14666504
    6.98996656    0.14987133
    7.12374582    0.15460303
    7.25752508    0.16154488
    7.39130435    0.17043554
    7.52508361    0.18003693
    7.65886288    0.18846028
    7.79264214    0.19390779
    7.92642140    0.19553028
    8.06020067    0.19378066
    8.19397993    0.18999007
    8.32775920    0.18555506
    8.46153846    0.18129527
    8.59531773    0.17729681
    8.72909699    0.17318325
    8.86287625    0.16843945
    8.99665552    0.16255495
    9.13043478    0.15516381
    9.26421405    0.14631247
    9.39799331    0.13659737
    9.53177258    0.12693152
    9.66555184    0.11811677
    9.79933110    0.11058245
    9.93311037    0.10441972
   10.06688963    0.09956325
   10.20066890    0.09592800
   10.33444816    0.09344453
   10.46822742    0.09204272
   10.60200669    0.09162062
   10.73578595    0.09201844
   10.86956522    0.09306081
   11.00334448    0.09467870
   11.13712375    0.09696085
   11.27090301    0.09999233
   11.40468227    0.10357584
   11.53846154    0.10708395
   11.67224080    0.10962471
   11.80602007    0.11048384
   11.93979933    0.10953007
   12.07357860    0.10725052
   12.20735786    0.10442923
   12.34113712    0.10174488
   12.47491639    0.09953132
   12.60869565    0.09778402
   12.74247492    0.09630355
   12.87625418    0.09481343
   13.01003344    0.09305111
   13.14381271    0.09090115
   13.27759197    0.08849604
   13.41137124    0.08618341
   13.54515050    0.08440483
   13.67892977    0.08358675
   13.81270903    0.08407447
   13.94648829    0.08608064
   14.08026756    0.08961356
   14.21404682    0.09436566
   14.34782609    0.09959266
   14.48160535    0.10411253
   14.61538462    0.10659756
   14.74916388    0.10613383
   14.88294314    0.10266612
   15.01672241    0.09692574
   15.15050167    0.08992082
   15.28428094    0.08244796
   15.41806020    0.07494264
   15.55183946    0.06762146
   15.68561873    0.06066816
   15.81939799    0.05428570
   15.95317726    0.04863827
   16.08695652    0.04379831
   16.22073579    0.03974877
   16.35451505    0.03641780
   16.48829431    0.03371363
   16.62207358    0.03154706
   16.75585284    0.02984266
   16.88963211    0.02854277
   17.02341137    0.02760737
   17.15719064    0.02701154
   17.29096990    0.02674250
   17.42474916    0.02679648
   17.55852843    0.02717402
   17.69230769    0.02787111
   17.82608696    0.02886388
   17.95986622    0.03008754
   18.09364548    0.03142159
   18.22742475    0.03270832
   18.36120401    0.03382602
   18.49498328    0.03478116
   18.62876254    0.03573443
   18.76254181    0.03693332
   18.89632107    0.03862198
   19.03010033    0.04099317
   19.16387960    0.04417715
   19.29765886    0.04823071
   19.43143813    0.05310112
   19.56521739    0.05857119
   19.69899666    0.06423461
   19.83277592    0.06957505
   19.96655518    0.07414409
   20.10033445    0.07769054
   20.23411371    0.08014383
   20.36789298    0.08157443
   20.50167224    0.08220617
   20.63545151    0.08234900
   20.76923077    0.08224486
   20.90301003    0.08202073
   21.03678930    0.08178095
   21.17056856    0.08164112
   21.30434783    0.08161629
   21.43812709    0.08151837
   21.57190635    0.08102139
   21.70568562    0.07985653
   21.83946488    0.07796226
   21.97324415    0.07549897
   22.10702341    0.07279545
   22.24080268    0.07027436
   22.37458194    0.06832973
   22.50836120    0.06718638
   22.64214047    0.06682279
   22.77591973    0.06700025
   22.90969900    0.06739871
   23.04347826    0.06779613
   23.17725753    0.06814785
   23.31103679    0.06847950
   23.44481605    0.06871296
   23.57859532    0.06864103
   23.71237458    0.06808995
   23.84615385    0.06706117
   23.97993311    0.06567279
   24.11371237    0.06399920
   24.24749164    0.06201857
   24.38127090    0.05970706
   24.51505017    0.05714244
   24.64882943    0.05448802
   24.78260870    0.05186879
   24.91638796    0.04926097
   25.05016722    0.04651255
   25.18394649    0.04349646
   25.31772575    0.04025206
   25.45150502    0.03697336
   25.58528428    0.03388375
   25.71906355    0.03114070
   25.85284281    0.02882579
   25.98662207    0.02697422
   26.12040134    0.02559572
   26.25418060    0.02467825
   26.38795987    0.02418220
   26.52173913    0.02402778
   26.65551839    0.02408015
   26.78929766    0.02414968
   26.92307692    0.02403149
   27.05685619    0.02358259
   27.19063545    0.02278790
   27.32441472    0.02175931
   27.45819398    0.02066852
   27.59197324    0.01966999
   27.72575251    0.01886476
   27.85953177    0.01830759
   27.99331104    0.01802849
   28.12709030    0.01804334
   28.26086957    0.01834765
   28.39464883    0.01889831
   28.52842809    0.01959030
   28.66220736    0.02024507
   28.79598662    0.02064116
   28.92976589    0.02060221
   29.06354515    0.02009306
   29.19732441    0.01923773
   29.33110368    0.01824330
   29.46488294    0.01730133
   29.59866221    0.01653194
   29.73244147    0.01597641
   29.86622074    0.01561480
   30.00000000    0.01539315
