# Final state angular momentum:   1
# Broadening parameter (in eV):    1.500
# Absorbing atom type (xiabs):   1
# Energy (eV)   sigma
  -10.00000000    0.06129821
   -9.86622074    0.06294346
   -9.73244147    0.06457212
   -9.59866221    0.06616647
   -9.46488294    0.06771109
   -9.33110368    0.06919426
   -9.19732441    0.07060890
   -9.06354515    0.07195345
   -8.92976589    0.07323266
   -8.79598662    0.07445737
   -8.66220736    0.07564249
   -8.52842809    0.07680303
   -8.39464883    0.07794982
   -8.26086957    0.07908699
   -8.12709030    0.08021258
   -7.99331104    0.08132176
   -7.85953177    0.08241114
   -7.72575251    0.08348224
   -7.59197324    0.08454301
   -7.45819398    0.08560744
   -7.32441472    0.08669332
   -7.19063545    0.08781846
   -7.05685619    0.08899576
   -6.92307692    0.09022766
   -6.78929766    0.09150138
   -6.65551839    0.09278661
   -6.52173913    0.09403732
   -6.38795987    0.09519855
   -6.25418060    0.09621687
   -6.12040134    0.09705162
   -5.98662207    0.09768249
   -5.85284281    0.09810982
   -5.71906355    0.09834698
   -5.58528428    0.09840739
   -5.45150502    0.09829147
   -5.31772575    0.09797881
   -5.18394649    0.09742838
   -5.05016722    0.09658665
   -4.91638796    0.09540022
   -4.78260870    0.09382911
   -4.64882943    0.09185693
   -4.51505017    0.08949652
   -4.38127090    0.08679039
   -4.24749164    0.08380681
   -4.11371237    0.08063269
   -3.97993311    0.07736453
   -3.84615385    0.07409918
   -3.71237458    0.07092575
   -3.57859532    0.06791938
   -3.44481605    0.06513740
   -3.31103679    0.06261758
   -3.17725753    0.06037815
   -3.04347826    0.05841906
   -2.90969900    0.05672409
   -2.77591973    0.05526361
   -2.64214047    0.05399784
   -2.50836120    0.05288042
   -2.37458194    0.05186214
   -2.24080268    0.05089464
   -2.10702341    0.04993405
   -1.97324415    0.04894456
   -1.83946488    0.04790147
   -1.70568562    0.04679315
   -1.57190635    0.04562110
   -1.43812709    0.04439759
   -1.30434783    0.04314130
   -1.17056856    0.04187214
   -1.03678930    0.04060667
   -0.90301003    0.03935572
   -0.76923077    0.03812449
   -0.63545151    0.03691493
   -0.50167224    0.03572900
   -0.36789298    0.03457142
   -0.23411371    0.03345087
   -0.10033445    0.03237933
    0.03344482    0.03137028
    0.16722408    0.03043661
    0.30100334    0.02958900
    0.43478261    0.02883513
    0.56856187    0.02817958
    0.70234114    0.02762428
    0.83612040    0.02716920
    0.96989967    0.02681301
    1.10367893    0.02655373
    1.23745819    0.02638922
    1.37123746    0.02631755
    1.50501672    0.02633725
    1.63879599    0.02644753
    1.77257525    0.02664839
    1.90635452    0.02694069
    2.04013378    0.02732627
    2.17391304    0.02780795
    2.30769231    0.02838964
    2.44147157    0.02907635
    2.57525084    0.02987423
    2.70903010    0.03079067
    2.84280936    0.03183424
    2.97658863    0.03301470
    3.11036789    0.03434290
    3.24414716    0.03583063
    3.37792642    0.03749024
    3.51170569    0.03933415
    3.64548495    0.04137409
    3.77926421    0.04362007
    3.91304348    0.04607908
    4.04682274    0.04875362
    4.18060201    0.05164020
    4.31438127    0.05472814
    4.44816054    0.05799906
    4.58193980    0.06142743
    4.71571906    0.06498266
    4.84949833    0.06863282
    4.98327759    0.07234972
    5.11705686    0.07611417
    5.25083612    0.07991961
    5.38461538    0.08377221
    5.51839465    0.08768674
    5.65217391    0.09167909
    5.78595318    0.09575761
    5.91973244    0.09991603
    6.05351171    0.10413013
    6.18729097    0.10835934
    6.32107023    0.11255367
    6.45484950    0.11666434
    6.58862876    0.12065503
    6.72240803    0.12450871
    6.85618729    0.12822588
    6.98996656    0.13181294
    7.12374582    0.13526431
    7.25752508    0.13854536
    7.39130435    0.14158422
    7.52508361    0.14427703
    7.65886288    0.14650618
    7.79264214    0.14816535
    7.92642140    0.14918213
    8.06020067    0.14952976
    8.19397993    0.14922482
    8.32775920    0.14831369
    8.46153846    0.14685506
    8.59531773    0.14490608
    8.72909699    0.14251641
    8.86287625    0.13973065
    8.99665552    0.13659632
    9.13043478    0.13317291
    9.26421405    0.12953804
    9.39799331    0.12578757
    9.53177258    0.12202927
    9.66555184    0.11837224
    9.79933110    0.11491583
    9.93311037    0.11174131
   10.06688963    0.10890782
   10.20066890    0.10645203
   10.33444816    0.10439017
   10.46822742    0.10272079
   10.60200669    0.10142755
   10.73578595    0.10048138
   10.86956522    0.09984197
   11.00334448    0.09945853
   11.13712375    0.09926993
   11.27090301    0.09920540
   11.40468227    0.09918733
   11.53846154    0.09913732
   11.67224080    0.09898559
   11.80602007    0.09868107
   11.93979933    0.09819877
   12.07357860    0.09754109
   12.20735786    0.09673252
   12.34113712    0.09580986
   12.47491639    0.09481169
   12.60869565    0.09377103
   12.74247492    0.09271294
   12.87625418    0.09165722
   13.01003344    0.09062377
   13.14381271    0.08963747
   13.27759197    0.08872987
   13.41137124    0.08793614
   13.54515050    0.08728813
   13.67892977    0.08680511
   13.81270903    0.08648471
   13.94648829    0.08629594
   14.08026756    0.08617624
   14.21404682    0.08603414
   14.34782609    0.08575834
   14.48160535    0.08523277
   14.61538462    0.08435516
   14.74916388    0.08305438
   14.88294314    0.08130203
   15.01672241    0.07911475
   15.15050167    0.07654779
   15.28428094    0.07368301
   15.41806020    0.07061563
   15.55183946    0.06744306
   15.68561873    0.06425684
   15.81939799    0.06113758
   15.95317726    0.05815211
   16.08695652    0.05535232
   16.22073579    0.05277540
   16.35451505    0.05044531
   16.48829431    0.04837501
   16.62207358    0.04656894
   16.75585284    0.04502551
   16.88963211    0.04373914
   17.02341137    0.04270174
   17.15719064    0.04190377
   17.29096990    0.04133466
   17.42474916    0.04098297
   17.55852843    0.04083629
   17.69230769    0.04088121
   17.82608696    0.04110358
   17.95986622    0.04148938
   18.09364548    0.04202622
   18.22742475    0.04270535
   18.36120401    0.04352351
   18.49498328    0.04448378
   18.62876254    0.04559477
   18.76254181    0.04686782
   18.89632107    0.04831269
   19.03010033    0.04993259
   19.16387960    0.05171958
   19.29765886    0.05365124
   19.43143813    0.05568941
   19.56521739    0.05778160
   19.69899666    0.05986527
   19.83277592    0.06187441
   19.96655518    0.06374718
   20.10033445    0.06543290
   20.23411371    0.06689685
   20.36789298    0.06812202
   20.50167224    0.06910779
   20.63545151    0.06986615
   20.76923077    0.07041648
   20.90301003    0.07078025
   21.03678930    0.07097644
   21.17056856    0.07101873
   21.30434783    0.07091492
   21.43812709    0.07066887
   21.57190635    0.07028460
   21.70568562    0.06977111
   21.83946488    0.06914609
   21.97324415    0.06843690
   22.10702341    0.06767833
   22.24080268    0.06690777
   22.37458194    0.06615909
   22.50836120    0.06545700
   22.64214047    0.06481318
   22.77591973    0.06422531
   22.90969900    0.06367859
   23.04347826    0.06314917
   23.17725753    0.06260808
   23.31103679    0.06202502
   23.44481605    0.06137150
   23.57859532    0.06062354
   23.71237458    0.05976352
   23.84615385    0.05878111
   23.97993311    0.05767302
   24.11371237    0.05644190
   24.24749164    0.05509493
   24.38127090    0.05364243
   24.51505017    0.05209670
   24.64882943    0.05047103
   24.78260870    0.04877921
   24.91638796    0.04703594
   25.05016722    0.04525799
   25.18394649    0.04346559
   25.31772575    0.04168290
   25.45150502    0.03993708
   25.58528428    0.03825590
   25.71906355    0.03666483
   25.85284281    0.03518437
   25.98662207    0.03382817
   26.12040134    0.03260199
   26.25418060    0.03150360
   26.38795987    0.03052335
   26.52173913    0.02964553
   26.65551839    0.02885054
   26.78929766    0.02811771
   26.92307692    0.02742854
   27.05685619    0.02676950
   27.19063545    0.02613383
   27.32441472    0.02552172
   27.45819398    0.02493891
   27.59197324    0.02439430
   27.72575251    0.02389717
   27.85953177    0.02345477
   27.99331104    0.02307047
   28.12709030    0.02274267
   28.26086957    0.02246436
   28.39464883    0.02222350
   28.52842809    0.02200420
   28.66220736    0.02178891
   28.79598662    0.02156123
   28.92976589    0.02130877
   29.06354515    0.02102546
   29.19732441    0.02071227
   29.33110368    0.02037639
   29.46488294    0.02002900
   29.59866221    0.01968264
   29.73244147    0.01934887
   29.86622074    0.01903678
   30.00000000    0.01875244
