# Final state angular momentum:   1
# Broadening parameter (in eV):    1.500
# Absorbing atom type (xiabs):   1
# Energy (eV)   sigma
  -10.00000000    0.06124438
   -9.86622074    0.06288925
   -9.73244147    0.06451790
   -9.59866221    0.06611269
   -9.46488294    0.06765820
   -9.33110368    0.06914274
   -9.19732441    0.07055916
   -9.06354515    0.07190582
   -8.92976589    0.07318731
   -8.79598662    0.07441433
   -8.66220736    0.07560165
   -8.52842809    0.07676417
   -8.39464883    0.07791269
   -8.26086957    0.07905135
   -8.12709030    0.08017818
   -7.99331104    0.08128838
   -7.85953177    0.08237856
   -7.72575251    0.08345024
   -7.59197324    0.08451138
   -7.45819398    0.08557598
   -7.32441472    0.08666187
   -7.19063545    0.08778690
   -7.05685619    0.08896404
   -6.92307692    0.09019579
   -6.78929766    0.09146947
   -6.65551839    0.09275484
   -6.52173913    0.09400597
   -6.38795987    0.09516792
   -6.25418060    0.09618727
   -6.12040134    0.09702332
   -5.98662207    0.09765570
   -5.85284281    0.09808471
   -5.71906355    0.09832374
   -5.58528428    0.09838624
   -5.45150502    0.09827275
   -5.31772575    0.09796293
   -5.18394649    0.09741581
   -5.05016722    0.09657782
   -4.91638796    0.09539549
   -4.78260870    0.09382864
   -4.64882943    0.09186070
   -4.51505017    0.08950425
   -4.38127090    0.08680159
   -4.24749164    0.08382084
   -4.11371237    0.08064877
   -3.97993311    0.07738186
   -3.84615385    0.07411703
   -3.71237458    0.07094348
   -3.57859532    0.06793649
   -3.44481605    0.06515352
   -3.31103679    0.06263248
   -3.17725753    0.06039172
   -3.04347826    0.05843127
   -2.90969900    0.05673500
   -2.77591973    0.05527333
   -2.64214047    0.05400650
   -2.50836120    0.05288818
   -2.37458194    0.05186915
   -2.24080268    0.05090106
   -2.10702341    0.04994002
   -1.97324415    0.04895019
   -1.83946488    0.04790682
   -1.70568562    0.04679826
   -1.57190635    0.04562597
   -1.43812709    0.04440220
   -1.30434783    0.04314563
   -1.17056856    0.04187616
   -1.03678930    0.04061037
   -0.90301003    0.03935912
   -0.76923077    0.03812762
   -0.63545151    0.03691781
   -0.50167224    0.03573165
   -0.36789298    0.03457385
   -0.23411371    0.03345305
   -0.10033445    0.03238124
    0.03344482    0.03137187
    0.16722408    0.03043786
    0.30100334    0.02958988
    0.43478261    0.02883561
    0.56856187    0.02817965
    0.70234114    0.02762394
    0.83612040    0.02716845
    0.96989967    0.02681184
    1.10367893    0.02655214
    1.23745819    0.02638720
    1.37123746    0.02631509
    1.50501672    0.02633435
    1.63879599    0.02644418
    1.77257525    0.02664457
    1.90635452    0.02693638
    2.04013378    0.02732144
    2.17391304    0.02780256
    2.30769231    0.02838365
    2.44147157    0.02906971
    2.57525084    0.02986690
    2.70903010    0.03078257
    2.84280936    0.03182531
    2.97658863    0.03300485
    3.11036789    0.03433205
    3.24414716    0.03581869
    3.37792642    0.03747710
    3.51170569    0.03931972
    3.64548495    0.04135828
    3.77926421    0.04360279
    3.91304348    0.04606029
    4.04682274    0.04873327
    4.18060201    0.05161831
    4.31438127    0.05470479
    4.44816054    0.05797436
    4.58193980    0.06140157
    4.71571906    0.06495584
    4.84949833    0.06860525
    4.98327759    0.07232159
    5.11705686    0.07608561
    5.25083612    0.07989064
    5.38461538    0.08374278
    5.51839465    0.08765677
    5.65217391    0.09164849
    5.78595318    0.09572637
    5.91973244    0.09988427
    6.05351171    0.10409810
    6.18729097    0.10832743
    6.32107023    0.11252231
    6.45484950    0.11663395
    6.58862876    0.12062594
    6.72240803    0.12448111
    6.85618729    0.12819982
    6.98996656    0.13178846
    7.12374582    0.13524148
    7.25752508    0.13852443
    7.39130435    0.14156565
    7.52508361    0.14426141
    7.65886288    0.14649414
    7.79264214    0.14815744
    7.92642140    0.14917867
    8.06020067    0.14953085
    8.19397993    0.14923034
    8.32775920    0.14832338
    8.46153846    0.14686863
    8.59531773    0.14492321
    8.72909699    0.14253681
    8.86287625    0.13975403
    8.99665552    0.13662234
    9.13043478    0.13320116
    9.26421405    0.12956800
    9.39799331    0.12581866
    9.53177258    0.12206089
    9.66555184    0.11840381
    9.79933110    0.11494686
    9.93311037    0.11177145
   10.06688963    0.10893684
   10.20066890    0.10647983
   10.33444816    0.10441675
   10.46822742    0.10274627
   10.60200669    0.10145209
   10.73578595    0.10050521
   10.86956522    0.09986538
   11.00334448    0.09948182
   11.13712375    0.09929344
   11.27090301    0.09922950
   11.40468227    0.09921233
   11.53846154    0.09916353
   11.67224080    0.09901317
   11.80602007    0.09871008
   11.93979933    0.09822911
   12.07357860    0.09757253
   12.20735786    0.09676478
   12.34113712    0.09584259
   12.47491639    0.09484457
   12.60869565    0.09380373
   12.74247492    0.09274519
   12.87625418    0.09168874
   13.01003344    0.09065431
   13.14381271    0.08966679
   13.27759197    0.08875776
   13.41137124    0.08796247
   13.54515050    0.08731284
   13.67892977    0.08682829
   13.81270903    0.08650657
   13.94648829    0.08631681
   14.08026756    0.08619657
   14.21404682    0.08605444
   14.34782609    0.08577911
   14.48160535    0.08525446
   14.61538462    0.08437807
   14.74916388    0.08307863
   14.88294314    0.08132754
   15.01672241    0.07914127
   15.15050167    0.07657495
   15.28428094    0.07371036
   15.41806020    0.07064275
   15.55183946    0.06746954
   15.68561873    0.06428234
   15.81939799    0.06116185
   15.95317726    0.05817497
   16.08695652    0.05537365
   16.22073579    0.05279515
   16.35451505    0.05046349
   16.48829431    0.04839164
   16.62207358    0.04658409
   16.75585284    0.04503925
   16.88963211    0.04375155
   17.02341137    0.04271292
   17.15719064    0.04191379
   17.29096990    0.04134362
   17.42474916    0.04099093
   17.55852843    0.04084333
   17.69230769    0.04088740
   17.82608696    0.04110900
   17.95986622    0.04149408
   18.09364548    0.04203024
   18.22742475    0.04270873
   18.36120401    0.04352625
   18.49498328    0.04448588
   18.62876254    0.04559624
   18.76254181    0.04686865
   18.89632107    0.04831289
   19.03010033    0.04993222
   19.16387960    0.05171875
   19.29765886    0.05365012
   19.43143813    0.05568824
   19.56521739    0.05778067
   19.69899666    0.05986493
   19.83277592    0.06187500
   19.96655518    0.06374905
   20.10033445    0.06543634
   20.23411371    0.06690209
   20.36789298    0.06812918
   20.50167224    0.06911693
   20.63545151    0.06987725
   20.76923077    0.07042951
   20.90301003    0.07079512
   21.03678930    0.07099305
   21.17056856    0.07103697
   21.30434783    0.07093464
   21.43812709    0.07068991
   21.57190635    0.07030676
   21.70568562    0.06979417
   21.83946488    0.06916984
   21.97324415    0.06846112
   22.10702341    0.06770284
   22.24080268    0.06693241
   22.37458194    0.06618372
   22.50836120    0.06548151
   22.64214047    0.06483749
   22.77591973    0.06424934
   22.90969900    0.06370229
   23.04347826    0.06317250
   23.17725753    0.06263104
   23.31103679    0.06204761
   23.44481605    0.06139376
   23.57859532    0.06064550
   23.71237458    0.05978520
   23.84615385    0.05880254
   23.97993311    0.05769418
   24.11371237    0.05646277
   24.24749164    0.05511546
   24.38127090    0.05366259
   24.51505017    0.05211644
   24.64882943    0.05049031
   24.78260870    0.04879798
   24.91638796    0.04705417
   25.05016722    0.04527564
   25.18394649    0.04348263
   25.31772575    0.04169929
   25.45150502    0.03995278
   25.58528428    0.03827089
   25.71906355    0.03667909
   25.85284281    0.03519792
   25.98662207    0.03384102
   26.12040134    0.03261418
   26.25418060    0.03151518
   26.38795987    0.03053439
   26.52173913    0.02965608
   26.65551839    0.02886066
   26.78929766    0.02812745
   26.92307692    0.02743793
   27.05685619    0.02677855
   27.19063545    0.02614256
   27.32441472    0.02553012
   27.45819398    0.02494698
   27.59197324    0.02440203
   27.72575251    0.02390457
   27.85953177    0.02346186
   27.99331104    0.02307728
   28.12709030    0.02274923
   28.26086957    0.02247073
   28.39464883    0.02222971
   28.52842809    0.02201032
   28.66220736    0.02179499
   28.79598662    0.02156729
   28.92976589    0.02131483
   29.06354515    0.02103151
   29.19732441    0.02071830
   29.33110368    0.02038234
   29.46488294    0.02003484
   29.59866221    0.01968833
   29.73244147    0.01935437
   29.86622074    0.01904208
   30.00000000    0.01875755
