# Final state angular momentum:   1
# Broadening parameter (in eV):    0.800
# Absorbing atom type (xiabs):   1
# Energy (eV)   sigma
  -10.00000000    0.06438505
   -9.86622074    0.06712919
   -9.73244147    0.06977114
   -9.59866221    0.07216296
   -9.46488294    0.07429857
   -9.33110368    0.07626909
   -9.19732441    0.07810088
   -9.06354515    0.07964009
   -8.92976589    0.08066887
   -8.79598662    0.08118882
   -8.66220736    0.08154506
   -8.52842809    0.08221448
   -8.39464883    0.08346870
   -8.26086957    0.08520945
   -8.12709030    0.08707618
   -7.99331104    0.08871665
   -7.85953177    0.08998544
   -7.72575251    0.09092375
   -7.59197324    0.09162238
   -7.45819398    0.09215559
   -7.32441472    0.09263321
   -7.19063545    0.09325953
   -7.05685619    0.09430715
   -6.92307692    0.09605428
   -6.78929766    0.09872321
   -6.65551839    0.10236315
   -6.52173913    0.10669610
   -6.38795987    0.11106939
   -6.25418060    0.11461961
   -6.12040134    0.11662132
   -5.98662207    0.11687826
   -5.85284281    0.11590107
   -5.71906355    0.11467553
   -5.58528428    0.11416145
   -5.45150502    0.11485641
   -5.31772575    0.11662031
   -5.18394649    0.11877755
   -5.05016722    0.12042660
   -4.91638796    0.12080417
   -4.78260870    0.11949443
   -4.64882943    0.11638448
   -4.51505017    0.11153106
   -4.38127090    0.10515617
   -4.24749164    0.09768889
   -4.11371237    0.08967574
   -3.97993311    0.08164054
   -3.84615385    0.07402376
   -3.71237458    0.06716179
   -3.57859532    0.06126582
   -3.44481605    0.05642824
   -3.31103679    0.05265765
   -3.17725753    0.04991444
   -3.04347826    0.04812917
   -2.90969900    0.04719841
   -2.77591973    0.04696907
   -2.64214047    0.04723934
   -2.50836120    0.04779463
   -2.37458194    0.04845151
   -2.24080268    0.04905570
   -2.10702341    0.04943544
   -1.97324415    0.04937788
   -1.83946488    0.04867864
   -1.70568562    0.04724234
   -1.57190635    0.04515765
   -1.43812709    0.04268793
   -1.30434783    0.04017742
   -1.17056856    0.03792194
   -1.03678930    0.03607165
   -0.90301003    0.03459772
   -0.76923077    0.03331705
   -0.63545151    0.03197493
   -0.50167224    0.03037676
   -0.36789298    0.02849442
   -0.23411371    0.02645686
   -0.10033445    0.02444594
    0.03344482    0.02260256
    0.16722408    0.02099722
    0.30100334    0.01964483
    0.43478261    0.01852963
    0.56856187    0.01762380
    0.70234114    0.01689783
    0.83612040    0.01632510
    0.96989967    0.01588337
    1.10367893    0.01555484
    1.23745819    0.01532570
    1.37123746    0.01518552
    1.50501672    0.01512670
    1.63879599    0.01514403
    1.77257525    0.01523437
    1.90635452    0.01539641
    2.04013378    0.01563052
    2.17391304    0.01593875
    2.30769231    0.01632482
    2.44147157    0.01679428
    2.57525084    0.01735472
    2.70903010    0.01801606
    2.84280936    0.01879109
    2.97658863    0.01969597
    3.11036789    0.02075109
    3.24414716    0.02198202
    3.37792642    0.02342072
    3.51170569    0.02510684
    3.64548495    0.02708886
    3.77926421    0.02942456
    3.91304348    0.03217944
    4.04682274    0.03542122
    4.18060201    0.03920839
    4.31438127    0.04357262
    4.44816054    0.04850090
    4.58193980    0.05392424
    4.71571906    0.05970486
    4.84949833    0.06560211
    4.98327759    0.07125218
    5.11705686    0.07627387
    5.25083612    0.08051723
    5.38461538    0.08423053
    5.51839465    0.08793896
    5.65217391    0.09216814
    5.78595318    0.09727225
    5.91973244    0.10340743
    6.05351171    0.11053860
    6.18729097    0.11840787
    6.32107023    0.12645912
    6.45484950    0.13383816
    6.58862876    0.13969827
    6.72240803    0.14377871
    6.85618729    0.14675676
    6.98996656    0.14996791
    7.12374582    0.15472024
    7.25752508    0.16168909
    7.39130435    0.17060075
    7.52508361    0.18020533
    7.65886288    0.18860782
    7.79264214    0.19401434
    7.92642140    0.19558844
    8.06020067    0.19379616
    8.19397993    0.18997498
    8.32775920    0.18552035
    8.46153846    0.18124708
    8.59531773    0.17723702
    8.72909699    0.17311189
    8.86287625    0.16835603
    8.99665552    0.16245894
    9.13043478    0.15505623
    9.26421405    0.14619730
    9.39799331    0.13648061
    9.53177258    0.12681858
    9.66555184    0.11801085
    9.79933110    0.11048468
    9.93311037    0.10433021
   10.06688963    0.09948184
   10.20066890    0.09585435
   10.33444816    0.09337775
   10.46822742    0.09198107
   10.60200669    0.09156172
   10.73578595    0.09196000
   10.86956522    0.09300134
   11.00334448    0.09461772
   11.13712375    0.09689814
   11.27090301    0.09992678
   11.40468227    0.10350468
   11.53846154    0.10700327
   11.67224080    0.10953131
   11.80602007    0.11037747
   11.93979933    0.10941412
   12.07357860    0.10713045
   12.20735786    0.10431031
   12.34113712    0.10163078
   12.47491639    0.09942379
   12.60869565    0.09768337
   12.74247492    0.09620925
   12.87625418    0.09472496
   13.01003344    0.09296878
   13.14381271    0.09082634
   13.27759197    0.08843042
   13.41137124    0.08612777
   13.54515050    0.08435868
   13.67892977    0.08354873
   13.81270903    0.08404299
   13.94648829    0.08605419
   14.08026756    0.08959027
   14.21404682    0.09434253
   14.34782609    0.09956490
   14.48160535    0.10407395
   14.61538462    0.10654251
   14.74916388    0.10606033
   14.88294314    0.10257759
   15.01672241    0.09682955
   15.15050167    0.08982505
   15.28428094    0.08235885
   15.41806020    0.07486372
   15.55183946    0.06755382
   15.68561873    0.06061116
   15.81939799    0.05423780
   15.95317726    0.04859774
   16.08695652    0.04376363
   16.22073579    0.03971876
   16.35451505    0.03639157
   16.48829431    0.03369051
   16.62207358    0.03152655
   16.75585284    0.02982432
   16.88963211    0.02852627
   17.02341137    0.02759240
   17.15719064    0.02699787
   17.29096990    0.02672995
   17.42474916    0.02678490
   17.55852843    0.02716329
   17.69230769    0.02786113
   17.82608696    0.02885450
   17.95986622    0.03007860
   18.09364548    0.03141286
   18.22742475    0.03269956
   18.36120401    0.03381705
   18.49498328    0.03477194
   18.62876254    0.03572503
   18.76254181    0.03692384
   18.89632107    0.03861250
   19.03010033    0.04098372
   19.16387960    0.04416774
   19.29765886    0.04822134
   19.43143813    0.05309185
   19.56521739    0.05856205
   19.69899666    0.06422556
   19.83277592    0.06956572
   19.96655518    0.07413346
   20.10033445    0.07767679
   20.23411371    0.08012495
   20.36789298    0.08154926
   20.50167224    0.08217496
   20.63545151    0.08231289
   20.76923077    0.08220508
   20.90301003    0.08197841
   21.03678930    0.08173708
   21.17056856    0.08159592
   21.30434783    0.08156865
   21.43812709    0.08146675
   21.57190635    0.08096594
   21.70568562    0.07980013
   21.83946488    0.07790875
   21.97324415    0.07545052
   22.10702341    0.07275172
   22.24080268    0.07023371
   22.37458194    0.06829051
   22.50836120    0.06714782
   22.64214047    0.06678519
   22.77591973    0.06696465
   22.90969900    0.06736610
   23.04347826    0.06776655
   23.17725753    0.06812035
   23.31103679    0.06845305
   23.44481605    0.06868720
   23.57859532    0.06861608
   23.71237458    0.06806585
   23.84615385    0.06703750
   23.97993311    0.06564881
   24.11371237    0.06397436
   24.24749164    0.06199294
   24.38127090    0.05968149
   24.51505017    0.05711804
   24.64882943    0.05446554
   24.78260870    0.05184817
   24.91638796    0.04924158
   25.05016722    0.04649361
   25.18394649    0.04347754
   25.31772575    0.04023319
   25.45150502    0.03695480
   25.58528428    0.03386572
   25.71906355    0.03112325
   25.85284281    0.02880881
   25.98662207    0.02695751
   26.12040134    0.02557899
   26.25418060    0.02466122
   26.38795987    0.02416464
   26.52173913    0.02400963
   26.65551839    0.02406160
   26.78929766    0.02413121
   26.92307692    0.02401372
   27.05685619    0.02356606
   27.19063545    0.02277286
   27.32441472    0.02174572
   27.45819398    0.02065616
   27.59197324    0.01965855
   27.72575251    0.01885394
   27.85953177    0.01829712
   27.99331104    0.01801812
   28.12709030    0.01803285
   28.26086957    0.01833686
   28.39464883    0.01888705
   28.52842809    0.01957850
   28.66220736    0.02023282
   28.79598662    0.02062873
   28.92976589    0.02059000
   29.06354515    0.02008145
   29.19732441    0.01922694
   29.33110368    0.01823337
   29.46488294    0.01729215
   29.59866221    0.01652334
   29.73244147    0.01596823
   29.86622074    0.01560692
   30.00000000    0.01538549
