# Final state angular momentum:   1
# Broadening parameter (in eV):    1.000
# Absorbing atom type (xiabs):   1
# Energy (eV)   sigma
  -10.00000000    0.06362071
   -9.86622074    0.06583983
   -9.73244147    0.06802570
   -9.59866221    0.07010793
   -9.46488294    0.07205184
   -9.33110368    0.07384585
   -9.19732441    0.07547139
   -9.06354515    0.07689106
   -8.92976589    0.07808086
   -8.79598662    0.07908272
   -8.66220736    0.08001820
   -8.52842809    0.08103443
   -8.39464883    0.08222064
   -8.26086957    0.08356101
   -8.12709030    0.08495619
   -7.99331104    0.08629027
   -7.85953177    0.08749021
   -7.72575251    0.08854267
   -7.59197324    0.08947847
   -7.45819398    0.09035709
   -7.32441472    0.09126555
   -7.19063545    0.09231888
   -7.05685619    0.09364592
   -6.92307692    0.09535926
   -6.78929766    0.09751426
   -6.65551839    0.10006296
   -6.52173913    0.10282194
   -6.38795987    0.10548642
   -6.25418060    0.10770999
   -6.12040134    0.10923171
   -5.98662207    0.10999356
   -5.85284281    0.11017688
   -5.71906355    0.11012226
   -5.58528428    0.11016940
   -5.45150502    0.11050174
   -5.31772575    0.11106815
   -5.18394649    0.11160622
   -5.05016722    0.11174451
   -4.91638796    0.11112847
   -4.78260870    0.10951103
   -4.64882943    0.10678304
   -4.51505017    0.10296581
   -4.38127090    0.09819802
   -4.24749164    0.09271724
   -4.11371237    0.08682234
   -3.97993311    0.08082516
   -3.84615385    0.07501055
   -3.71237458    0.06961101
   -3.57859532    0.06479370
   -3.44481605    0.06065946
   -3.31103679    0.05725143
   -3.17725753    0.05456691
   -3.04347826    0.05256632
   -2.90969900    0.05117755
   -2.77591973    0.05029876
   -2.64214047    0.04980518
   -2.50836120    0.04956151
   -2.37458194    0.04943377
   -2.24080268    0.04929326
   -2.10702341    0.04901498
   -1.97324415    0.04848263
   -1.83946488    0.04760883
   -1.70568562    0.04636336
   -1.57190635    0.04479106
   -1.43812709    0.04300374
   -1.30434783    0.04114547
   -1.17056856    0.03934549
   -1.03678930    0.03767913
   -0.90301003    0.03615116
   -0.76923077    0.03470627
   -0.63545151    0.03326287
   -0.50167224    0.03175714
   -0.36789298    0.03017501
   -0.23411371    0.02855455
   -0.10033445    0.02696237
    0.03344482    0.02546427
    0.16722408    0.02410700
    0.30100334    0.02291439
    0.43478261    0.02189181
    0.56856187    0.02103304
    0.70234114    0.02032609
    0.83612040    0.01975711
    0.96989967    0.01931264
    1.10367893    0.01898073
    1.23745819    0.01875138
    1.37123746    0.01861667
    1.50501672    0.01857060
    1.63879599    0.01860909
    1.77257525    0.01872973
    1.90635452    0.01893178
    2.04013378    0.01921608
    2.17391304    0.01958503
    2.30769231    0.02004269
    2.44147157    0.02059485
    2.57525084    0.02124924
    2.70903010    0.02201573
    2.84280936    0.02290667
    2.97658863    0.02393726
    3.11036789    0.02512598
    3.24414716    0.02649505
    3.37792642    0.02807082
    3.51170569    0.02988396
    3.64548495    0.03196919
    3.77926421    0.03436404
    3.91304348    0.03710620
    4.04682274    0.04022877
    4.18060201    0.04375317
    4.31438127    0.04768061
    4.44816054    0.05198356
    4.58193980    0.05659901
    4.71571906    0.06142400
    4.84949833    0.06631758
    4.98327759    0.07112117
    5.11705686    0.07570868
    5.25083612    0.08005085
    5.38461538    0.08424763
    5.51839465    0.08849582
    5.65217391    0.09301262
    5.78595318    0.09796296
    5.91973244    0.10341569
    6.05351171    0.10932255
    6.18729097    0.11550955
    6.32107023    0.12168903
    6.45484950    0.12752120
    6.58862876    0.13274368
    6.72240803    0.13732246
    6.85618729    0.14151604
    6.98996656    0.14577884
    7.12374582    0.15054334
    7.25752508    0.15599514
    7.39130435    0.16193986
    7.52508361    0.16781321
    7.65886288    0.17284545
    7.79264214    0.17633613
    7.92642140    0.17791878
    8.06020067    0.17766892
    8.19397993    0.17599763
    8.32775920    0.17341268
    8.46153846    0.17029559
    8.59531773    0.16680088
    8.72909699    0.16288484
    8.86287625    0.15839910
    8.99665552    0.15319105
    9.13043478    0.14719836
    9.26421405    0.14052580
    9.39799331    0.13346109
    9.53177258    0.12640282
    9.66555184    0.11974004
    9.79933110    0.11375875
    9.93311037    0.10861737
   10.06688963    0.10437584
   10.20066890    0.10103702
   10.33444816    0.09857343
   10.46822742    0.09693625
   10.60200669    0.09605563
   10.73578595    0.09584432
   10.86956522    0.09621315
   11.00334448    0.09708981
   11.13712375    0.09841302
   11.27090301    0.10008505
   11.40468227    0.10190933
   11.53846154    0.10357284
   11.67224080    0.10471644
   11.80602007    0.10507174
   11.93979933    0.10457726
   12.07357860    0.10338911
   12.20735786    0.10178505
   12.34113712    0.10003806
   12.47491639    0.09833210
   12.60869565    0.09673860
   12.74247492    0.09523479
   12.87625418    0.09374544
   13.01003344    0.09220024
   13.14381271    0.09059130
   13.27759197    0.08900356
   13.41137124    0.08760409
   13.54515050    0.08660232
   13.67892977    0.08620159
   13.81270903    0.08655244
   13.94648829    0.08770799
   14.08026756    0.08958083
   14.21404682    0.09190721
   14.34782609    0.09424008
   14.48160535    0.09600467
   14.61538462    0.09663466
   14.74916388    0.09574932
   14.88294314    0.09327546
   15.01672241    0.08943508
   15.15050167    0.08461511
   15.28428094    0.07921571
   15.41806020    0.07356316
   15.55183946    0.06790163
   15.68561873    0.06242082
   15.81939799    0.05727419
   15.95317726    0.05257701
   16.08695652    0.04839846
   16.22073579    0.04476212
   16.35451505    0.04165611
   16.48829431    0.03904718
   16.62207358    0.03689318
   16.75585284    0.03515191
   16.88963211    0.03378618
   17.02341137    0.03276590
   17.15719064    0.03206819
   17.29096990    0.03167602
   17.42474916    0.03157586
   17.55852843    0.03175396
   17.69230769    0.03219127
   17.82608696    0.03285741
   17.95986622    0.03370637
   18.09364548    0.03467886
   18.22742475    0.03571648
   18.36120401    0.03678694
   18.49498328    0.03790775
   18.62876254    0.03915146
   18.76254181    0.04062753
   18.89632107    0.04245234
   19.03010033    0.04472207
   19.16387960    0.04749315
   19.29765886    0.05076625
   19.43143813    0.05447099
   19.56521739    0.05845662
   19.69899666    0.06250168
   19.83277592    0.06635231
   19.96655518    0.06977897
   20.10033445    0.07262325
   20.23411371    0.07481631
   20.36789298    0.07637612
   20.50167224    0.07739128
   20.63545151    0.07798805
   20.76923077    0.07829020
   20.90301003    0.07839637
   21.03678930    0.07837816
   21.17056856    0.07827527
   21.30434783    0.07807726
   21.43812709    0.07771472
   21.57190635    0.07708565
   21.70568562    0.07611053
   21.83946488    0.07478262
   21.97324415    0.07318667
   22.10702341    0.07148309
   22.24080268    0.06986705
   22.37458194    0.06851387
   22.50836120    0.06752840
   22.64214047    0.06691951
   22.77591973    0.06661191
   22.90969900    0.06648980
   23.04347826    0.06644650
   23.17725753    0.06640724
   23.31103679    0.06631380
   23.44481605    0.06609727
   23.57859532    0.06567657
   23.71237458    0.06498743
   23.84615385    0.06400789
   23.97993311    0.06275135
   24.11371237    0.06123964
   24.24749164    0.05948974
   24.38127090    0.05752463
   24.51505017    0.05538732
   24.64882943    0.05313363
   24.78260870    0.05080555
   24.91638796    0.04841050
   25.05016722    0.04593056
   25.18394649    0.04335845
   25.31772575    0.04073007
   25.45150502    0.03812615
   25.58528428    0.03564606
   25.71906355    0.03337832
   25.85284281    0.03138566
   25.98662207    0.02970368
   26.12040134    0.02834399
   26.25418060    0.02729593
   26.38795987    0.02652578
   26.52173913    0.02597504
   26.65551839    0.02556147
   26.78929766    0.02518797
   26.92307692    0.02476213
   27.05685619    0.02422192
   27.19063545    0.02355444
   27.32441472    0.02279591
   27.45819398    0.02201326
   27.59197324    0.02127924
   27.72575251    0.02065456
   27.85953177    0.02018111
   27.99331104    0.01988227
   28.12709030    0.01976339
   28.26086957    0.01980944
   28.39464883    0.01998007
   28.52842809    0.02020657
   28.66220736    0.02039698
   28.79598662    0.02045545
   28.92976589    0.02031334
   29.06354515    0.01995628
   29.19732441    0.01942868
   29.33110368    0.01881188
   29.46488294    0.01819163
   29.59866221    0.01763287
   29.73244147    0.01716932
   29.86622074    0.01680575
   30.00000000    0.01652747
