# Final state angular momentum:   1
# Broadening parameter (in eV):    0.800
# Absorbing atom type (xiabs):   1
# Energy (eV)   sigma
  -10.00000000    0.06424833
   -9.86622074    0.06698459
   -9.73244147    0.06962101
   -9.59866221    0.07200973
   -9.46488294    0.07414491
   -9.33110368    0.07611931
   -9.19732441    0.07796239
   -9.06354515    0.07952229
   -8.92976589    0.08057813
   -8.79598662    0.08112358
   -8.66220736    0.08149672
   -8.52842809    0.08217342
   -8.39464883    0.08342963
   -8.26086957    0.08517235
   -8.12709030    0.08704330
   -7.99331104    0.08868867
   -7.85953177    0.08996013
   -7.72575251    0.09089756
   -7.59197324    0.09159272
   -7.45819398    0.09212168
   -7.32441472    0.09259531
   -7.19063545    0.09321800
   -7.05685619    0.09426220
   -6.92307692    0.09600602
   -6.78929766    0.09867165
   -6.65551839    0.10230863
   -6.52173913    0.10663982
   -6.38795987    0.11101362
   -6.25418060    0.11456715
   -6.12040134    0.11657415
   -5.98662207    0.11683617
   -5.85284281    0.11586153
   -5.71906355    0.11463548
   -5.58528428    0.11411981
   -5.45150502    0.11481559
   -5.31772575    0.11658598
   -5.18394649    0.11875656
   -5.05016722    0.12042440
   -4.91638796    0.12082328
   -4.78260870    0.11953531
   -4.64882943    0.11644737
   -4.51505017    0.11161584
   -4.38127090    0.10525956
   -4.24749164    0.09780322
   -4.11371237    0.08979160
   -3.97993311    0.08175039
   -3.84615385    0.07412334
   -3.71237458    0.06724972
   -3.57859532    0.06134258
   -3.44481605    0.05649530
   -3.31103679    0.05271686
   -3.17725753    0.04996767
   -3.04347826    0.04817808
   -2.90969900    0.04724426
   -2.77591973    0.04701262
   -2.64214047    0.04728088
   -2.50836120    0.04783423
   -2.37458194    0.04848924
   -2.24080268    0.04909164
   -2.10702341    0.04946951
   -1.97324415    0.04940977
   -1.83946488    0.04870782
   -1.70568562    0.04726828
   -1.57190635    0.04518007
   -1.43812709    0.04270697
   -1.30434783    0.04019358
   -1.17056856    0.03793586
   -1.03678930    0.03608387
   -0.90301003    0.03460860
   -0.76923077    0.03332675
   -0.63545151    0.03198344
   -0.50167224    0.03038404
   -0.36789298    0.02850046
   -0.23411371    0.02646173
   -0.10033445    0.02444976
    0.03344482    0.02260543
    0.16722408    0.02099925
    0.30100334    0.01964610
    0.43478261    0.01853020
    0.56856187    0.01762372
    0.70234114    0.01689713
    0.83612040    0.01632381
    0.96989967    0.01588149
    1.10367893    0.01555239
    1.23745819    0.01532266
    1.37123746    0.01518187
    1.50501672    0.01512242
    1.63879599    0.01513909
    1.77257525    0.01522873
    1.90635452    0.01539000
    2.04013378    0.01562329
    2.17391304    0.01593060
    2.30769231    0.01631566
    2.44147157    0.01678398
    2.57525084    0.01734312
    2.70903010    0.01800300
    2.84280936    0.01877633
    2.97658863    0.01967925
    3.11036789    0.02073207
    3.24414716    0.02196029
    3.37792642    0.02339577
    3.51170569    0.02507805
    3.64548495    0.02705546
    3.77926421    0.02938565
    3.91304348    0.03213398
    4.04682274    0.03536813
    4.18060201    0.03914666
    4.31438127    0.04350155
    4.44816054    0.04842035
    4.58193980    0.05383486
    4.71571906    0.05960854
    4.84949833    0.06550259
    4.98327759    0.07115479
    5.11705686    0.07618328
    5.25083612    0.08043418
    5.38461538    0.08415100
    5.51839465    0.08785656
    5.65217391    0.09207690
    5.78595318    0.09716779
    5.91973244    0.10328713
    6.05351171    0.11040245
    6.18729097    0.11826009
    6.32107023    0.12630940
    6.45484950    0.13370002
    6.58862876    0.13958259
    6.72240803    0.14368613
    6.85618729    0.14667582
    6.98996656    0.14988121
    7.12374582    0.15461312
    7.25752508    0.16155583
    7.39130435    0.17044732
    7.52508361    0.18004884
    7.65886288    0.18847122
    7.79264214    0.19391657
    7.92642140    0.19553600
    8.06020067    0.19378296
    8.19397993    0.18998923
    8.32775920    0.18555193
    8.46153846    0.18129097
    8.59531773    0.17729247
    8.72909699    0.17317972
    8.86287625    0.16843731
    8.99665552    0.16255462
    9.13043478    0.15516557
    9.26421405    0.14631622
    9.39799331    0.13660252
    9.53177258    0.12693717
    9.66555184    0.11812209
    9.79933110    0.11058693
    9.93311037    0.10442324
   10.06688963    0.09956599
   10.20066890    0.09593025
   10.33444816    0.09344647
   10.46822742    0.09204435
   10.60200669    0.09162172
   10.73578595    0.09201872
   10.86956522    0.09306004
   11.00334448    0.09467679
   11.13712375    0.09695779
   11.27090301    0.09998806
   11.40468227    0.10357010
   11.53846154    0.10707632
   11.67224080    0.10961482
   11.80602007    0.11047167
   11.93979933    0.10951608
   12.07357860    0.10723535
   12.20735786    0.10441340
   12.34113712    0.10172876
   12.47491639    0.09951519
   12.60869565    0.09776814
   12.74247492    0.09628815
   12.87625418    0.09479880
   13.01003344    0.09303766
   13.14381271    0.09088926
   13.27759197    0.08848586
   13.41137124    0.08617465
   13.54515050    0.08439682
   13.67892977    0.08357873
   13.81270903    0.08406580
   13.94648829    0.08607099
   14.08026756    0.08960290
   14.21404682    0.09435427
   14.34782609    0.09958116
   14.48160535    0.10410188
   14.61538462    0.10658871
   14.74916388    0.10612732
   14.88294314    0.10266186
   15.01672241    0.09692321
   15.15050167    0.08991953
   15.28428094    0.08244769
   15.41806020    0.07494334
   15.55183946    0.06762304
   15.68561873    0.06067032
   15.81939799    0.05428804
   15.95317726    0.04864045
   16.08695652    0.04380013
   16.22073579    0.03975017
   16.35451505    0.03641878
   16.48829431    0.03371425
   16.62207358    0.03154738
   16.75585284    0.02984272
   16.88963211    0.02854260
   17.02341137    0.02760699
   17.15719064    0.02701096
   17.29096990    0.02674172
   17.42474916    0.02679550
   17.55852843    0.02717284
   17.69230769    0.02786973
   17.82608696    0.02886231
   17.95986622    0.03008584
   18.09364548    0.03141981
   18.22742475    0.03270654
   18.36120401    0.03382424
   18.49498328    0.03477930
   18.62876254    0.03573233
   18.76254181    0.03693079
   18.89632107    0.03861885
   19.03010033    0.04098930
   19.16387960    0.04417244
   19.29765886    0.04822510
   19.43143813    0.05309468
   19.56521739    0.05856413
   19.69899666    0.06422729
   19.83277592    0.06956792
   19.96655518    0.07413754
   20.10033445    0.07768481
   20.23411371    0.08013902
   20.36789298    0.08157036
   20.50167224    0.08220242
   20.63545151    0.08234516
   20.76923077    0.08224098
   20.90301003    0.08201747
   21.03678930    0.08177902
   21.17056856    0.08164020
   21.30434783    0.08161442
   21.43812709    0.08151304
   21.57190635    0.08101194
   21.70568562    0.07984543
   21.83946488    0.07795308
   21.97324415    0.07549327
   22.10702341    0.07279210
   22.24080268    0.07027109
   22.37458194    0.06832479
   22.50836120    0.06717942
   22.64214047    0.06681489
   22.77591973    0.06699336
   22.90969900    0.06739447
   23.04347826    0.06779466
   23.17725753    0.06814789
   23.31103679    0.06847979
   23.44481605    0.06871329
   23.57859532    0.06864183
   23.71237458    0.06809147
   23.84615385    0.06706312
   23.97993311    0.06567464
   24.11371237    0.06400057
   24.24749164    0.06201944
   24.38127090    0.05970775
   24.51505017    0.05714337
   24.64882943    0.05448950
   24.78260870    0.05187088
   24.91638796    0.04926361
   25.05016722    0.04651566
   25.18394649    0.04349997
   25.31772575    0.04025579
   25.45150502    0.03697707
   25.58528428    0.03388720
   25.71906355    0.03114374
   25.85284281    0.02882833
   25.98662207    0.02697626
   26.12040134    0.02559727
   26.25418060    0.02467933
   26.38795987    0.02418285
   26.52173913    0.02402805
   26.65551839    0.02408014
   26.78929766    0.02414952
   26.92307692    0.02403133
   27.05685619    0.02358257
   27.19063545    0.02278805
   27.32441472    0.02175959
   27.45819398    0.02066884
   27.59197324    0.01967028
   27.72575251    0.01886496
   27.85953177    0.01830769
   27.99331104    0.01802847
   28.12709030    0.01804321
   28.26086957    0.01834742
   28.39464883    0.01889799
   28.52842809    0.01958994
   28.66220736    0.02024474
   28.79598662    0.02064094
   28.92976589    0.02060216
   29.06354515    0.02009319
   29.19732441    0.01923799
   29.33110368    0.01824361
   29.46488294    0.01730162
   29.59866221    0.01653216
   29.73244147    0.01597655
   29.86622074    0.01561486
   30.00000000    0.01539314
